"Time (EpSec)","Satellite101 - x (km)","Satellite101 - y (km)","Satellite101 - z (km)"
0.000,-5496.480586,-4921.951519,0.000000
60.000,-5332.144388,-5087.347698,352.186335
120.000,-5150.235369,-5236.183034,703.113412
180.000,-4951.252380,-5368.081365,1051.526471
240.000,-4735.751912,-5482.722092,1396.179747
300.000,-4504.346604,-5579.840820,1735.840914
360.000,-4257.703572,-5659.229810,2069.295496
420.000,-3996.542528,-5720.738238,2395.351212
480.000,-3721.633736,-5764.272283,2712.842232
540.000,-3433.795764,-5789.795022,3020.633352
600.000,-3133.893086,-5797.326141,3317.624049
660.000,-2822.833497,-5786.941475,3602.752420
720.000,-2501.565385,-5758.772367,3874.998974
780.000,-2171.074839,-5713.004852,4133.390279
840.000,-1832.382629,-5649.878679,4377.002445
900.000,-1486.541040,-5569.686165,4604.964424
960.000,-1134.630589,-5472.770890,4816.461128
1020.000,-777.756634,-5359.526242,5010.736340
1080.000,-417.045871,-5230.393814,5187.095419
1140.000,-53.642750,-5085.861659,5344.907785
1200.000,311.294197,-4926.462420,5483.609171
1260.000,676.596087,-4752.771317,5602.703645
1320.000,1041.087475,-4565.404039,5701.765377
1380.000,1403.590190,-4365.014504,5780.440169
1440.000,1762.927193,-4152.292532,5838.446714
1500.000,2117.926459,-3927.961416,5875.577607
1560.000,2467.424860,-3692.775413,5891.700086
1620.000,2810.272036,-3447.517159,5886.756502
1680.000,3145.334249,-3192.995012,5860.764532
1740.000,3471.498200,-2930.040345,5813.817112
1800.000,3787.674793,-2659.504784,5746.082105
1860.000,4092.802847,-2382.257411,5657.801700
1920.000,4385.852722,-2099.181936,5549.291548
1980.000,4665.829869,-1811.173852,5420.939633
2040.000,4931.778269,-1519.137569,5273.204883
2100.000,5182.783775,-1223.983560,5106.615531
2160.000,5417.977311,-926.625504,4921.767225
2220.000,5636.537959,-627.977449,4719.320900
2280.000,5837.695874,-328.951002,4500.000412
2340.000,6020.735069,-30.452549,4264.589952
2400.000,6184.996009,266.619480,4013.931242
2460.000,6329.878041,561.377296,3748.920525
2520.000,6454.841642,852.946378,3470.505359
2580.000,6559.410455,1140.468034,3179.681231
2640.000,6643.173145,1423.101886,2877.487997
2700.000,6705.785026,1700.028281,2565.006164
2760.000,6746.969483,1970.450604,2243.353026
2820.000,6766.519172,2233.597509,1913.678670
2880.000,6764.296985,2488.725046,1577.161862
2940.000,6740.236791,2735.118678,1235.005834
3000.000,6694.343942,2972.095194,888.433982
3060.000,6626.695533,3199.004509,538.685491
3120.000,6537.440433,3415.231339,187.010904
3180.000,6426.799070,3620.196752,-165.332350
3240.000,6295.062969,3813.359605,-517.084450
3300.000,6142.594064,3994.217833,-866.987690
3360.000,5969.823754,4162.309625,-1213.790972
3420.000,5777.251731,4317.214452,-1556.254286
3480.000,5565.444574,4458.553968,-1893.153137
3540.000,5335.034111,4585.992767,-2223.282926
3600.000,5086.715549,4699.239015,-2545.463258
3660.000,4821.245395,4798.044929,-2858.542162
3720.000,4539.439154,4882.207132,-3161.400208
3780.000,4242.168823,4951.566862,-3452.954514
3840.000,3930.360184,5006.010053,-3732.162612
3900.000,3604.989906,5045.467276,-3998.026180
3960.000,3267.082470,5069.913548,-4249.594610
4020.000,2917.706910,5079.368015,-4485.968406
4080.000,2557.973408,5073.893507,-4706.302403
4140.000,2189.029721,5053.595963,-4909.808786
4200.000,1812.057485,5018.623738,-5095.759907
4260.000,1428.268379,4969.166799,-5263.490890
4320.000,1038.900182,4905.455795,-5412.402003
4380.000,645.212726,4827.761026,-5541.960809
4440.000,248.483765,4736.391306,-5651.704062
4500.000,-149.995243,4631.692725,-5741.239371
4560.000,-548.923394,4514.047316,-5810.246598
4620.000,-946.994661,4383.871630,-5858.479004
4680.000,-1342.902236,4241.615231,-5885.764131
4740.000,-1735.342891,4087.759109,-5892.004422
4800.000,-2123.021348,3922.814022,-5877.177562
4860.000,-2504.654623,3747.318766,-5841.336566
4920.000,-2878.976351,3561.838388,-5784.609586
4980.000,-3244.741067,3366.962344,-5707.199451
5040.000,-3600.728425,3163.302606,-5609.382945
5100.000,-3945.747349,2951.491723,-5491.509816
5160.000,-4278.640094,2732.180851,-5354.001525
5220.000,-4598.286209,2506.037751,-5197.349740
5280.000,-4903.606382,2273.744758,-5022.114576
5340.000,-5193.566159,2035.996735,-4828.922596
5400.000,-5467.179521,1793.499015,-4618.464567
5460.000,-5723.512308,1546.965336,-4391.492992
5520.000,-5961.685473,1297.115777,-4148.819419
5580.000,-6180.878164,1044.674696,-3891.311539
5640.000,-6380.330612,790.368679,-3619.890085
5700.000,-6559.346824,534.924515,-3335.525536
5760.000,-6717.297063,279.067181,-3039.234652
5820.000,-6853.620114,23.517857,-2732.076836
5880.000,-6967.825320,-231.008016,-2415.150346
5940.000,-7059.494390,-483.802655,-2089.588367
6000.000,-7128.282955,-734.167805,-1756.554963
6060.000,-7173.921893,-981.416559,-1417.240911
6120.000,-7196.218390,-1224.875134,-1072.859444
6180.000,-7195.056747,-1463.884589,-724.641916
6240.000,-7170.398937,-1697.802483,-373.833395
6300.000,-7122.284885,-1926.004474,-21.688215
6360.000,-7050.832498,-2147.885847,330.534513
6420.000,-6956.237425,-2362.862978,681.575399
6480.000,-6838.772552,-2570.374724,1030.179278
6540.000,-6698.787238,-2769.883743,1375.099702
6600.000,-6536.706285,-2960.877725,1715.103389
6660.000,-6353.028660,-3142.870561,2048.974640
6720.000,-6148.325951,-3315.403420,2375.519682
6780.000,-5923.240582,-3478.045745,2693.570937
6840.000,-5678.483785,-3630.396169,3001.991198
6900.000,-5414.833326,-3772.083345,3299.677693
6960.000,-5133.131017,-3902.766686,3585.566028
7020.000,-4834.279988,-4022.137027,3858.633997
7080.000,-4519.241762,-4129.917190,4117.905232
7140.000,-4189.033117,-4225.862471,4362.452694
7200.000,-3844.722761,-4309.761038,4591.401994
7260.000,-3487.427824,-4381.434237,4803.934512
7320.000,-3118.310176,-4440.736815,4999.290327
7380.000,-2738.572598,-4487.557065,5176.770934
7440.000,-2349.454792,-4521.816871,5335.741744
7500.000,-1952.229278,-4543.471681,5475.634349
7560.000,-1548.197161,-4552.510397,5595.948555
7620.000,-1138.683798,-4548.955176,5696.254173
7680.000,-725.034383,-4532.861160,5776.192556
7740.000,-308.609444,-4504.316121,5835.477880
7800.000,109.219698,-4463.440038,5873.898167
7860.000,527.075531,-4410.384591,5891.316044
7920.000,943.578969,-4345.332592,5887.669232
7980.000,1357.353984,-4268.497333,5862.970771
8040.000,1767.032237,-4180.121888,5817.308972
8100.000,2171.257676,-4080.478322,5750.847099
8160.000,2568.691115,-3969.866866,5663.822791
8220.000,2958.014745,-3848.615009,5556.547208
8280.000,3337.936584,-3717.076545,5429.403918
8340.000,3707.194847,-3575.630565,5282.847530
8400.000,4064.562210,-3424.680390,5117.402061
8460.000,4408.849970,-3264.652464,4933.659071
8520.000,4738.912065,-3095.995192,4732.275541
8580.000,5053.648970,-2919.177746,4513.971529
8640.000,5352.011422,-2734.688817,4279.527591
8700.000,5633.003988,-2543.035343,4029.781992
8760.000,5895.688448,-2344.741193,3765.627711
8820.000,6139.186986,-2140.345828,3488.009243
8880.000,6362.685184,-1930.402925,3197.919228
8940.000,6565.434795,-1715.478984,2896.394896
9000.000,6746.756300,-1496.151908,2584.514363
9060.000,6906.041224,-1273.009567,2263.392772
9120.000,7042.754227,-1046.648344,1934.178309
9180.000,7156.434931,-817.671666,1598.048097
9240.000,7246.699504,-586.688534,1256.203985
9300.000,7313.241985,-354.312033,909.868255
9360.000,7355.835339,-121.157848,560.279247
9420.000,7374.332249,112.157224,208.686932
9480.000,7368.665636,345.016761,-143.651553
9540.000,7338.848910,576.806200,-495.476405
9600.000,7284.975943,806.914307,-845.529657
9660.000,7207.220770,1034.734644,-1192.559676
9720.000,7105.837021,1259.667018,-1535.325640
9780.000,6981.157081,1481.118918,-1872.601973
9840.000,6833.590980,1698.506928,-2203.182725
9900.000,6663.625024,1911.258120,-2525.885890
9960.000,6471.820161,2118.811432,-2839.557626
10020.000,6258.810100,2320.619002,-3143.076385
10080.000,6025.299181,2516.147491,-3435.356921
10140.000,5772.059999,2704.879360,-3715.354170
10200.000,5499.930807,2886.314120,-3982.066989
10260.000,5209.812690,3059.969549,-4234.541732
10320.000,4902.666525,3225.382856,-4471.875665
10380.000,4579.509744,3382.111821,-4693.220187
10440.000,4241.412900,3529.735876,-4897.783871
10500.000,3889.496057,3667.857153,-5084.835290
10560.000,3524.925012,3796.101473,-5253.705631
10620.000,3148.907365,3914.119295,-5403.791090
10680.000,2762.688440,4021.586601,-5534.555030
10740.000,2367.547096,4118.205739,-5645.529898
10800.000,1964.791404,4203.706201,-5736.318898
10860.000,1555.754249,4277.845350,-5806.597409
10920.000,1141.788831,4340.409077,-5856.114147
10980.000,724.264116,4391.212408,-5884.692062
11040.000,304.560220,4430.100043,-5892.228973
11100.000,-115.936229,4456.946826,-5878.697931
11160.000,-535.836759,4471.658159,-5844.147318
11220.000,-953.755711,4474.170336,-5788.700669
11280.000,-1368.314904,4464.450822,-5712.556238
11340.000,-1778.148250,4442.498448,-5615.986283
11400.000,-2181.906337,4408.343550,-5499.336094
11460.000,-2578.260952,4362.048021,-5363.022760
11520.000,-2965.909520,4303.705303,-5207.533675
11580.000,-3343.579462,4233.440298,-5033.424800
11640.000,-3710.032441,4151.409211,-4841.318667
11700.000,-4064.068491,4057.799311,-4631.902163
11760.000,-4404.530009,3952.828623,-4405.924066
11820.000,-4730.305603,3836.745546,-4164.192372
11880.000,-5040.333778,3709.828395,-3907.571404
11940.000,-5333.606448,3572.384863,-3636.978724
12000.000,-5609.172264,3424.751419,-3353.381848
12060.000,-5866.139746,3267.292624,-3057.794791
12120.000,-6103.680206,3100.400376,-2751.274440
12180.000,-6321.030462,2924.493086,-2434.916772
12240.000,-6517.495315,2740.014777,-2109.852939
12300.000,-6692.449807,2547.434118,-1777.245225
12360.000,-6845.341220,2347.243387,-1438.282883
12420.000,-6975.690849,2139.957364,-1094.177890
12480.000,-7083.095500,1926.112166,-746.160611
12540.000,-7167.228749,1706.264007,-395.475397
12600.000,-7227.841926,1480.987910,-43.376142
12660.000,-7264.764842,1250.876348,308.878206
12720.000,-7277.906242,1016.537832,660.028146
12780.000,-7267.254001,778.595449,1008.818123
12840.000,-7232.875037,537.685346,1354.001021
12900.000,-7174.914970,294.455157,1694.342622
12960.000,-7093.597510,49.562405,2028.626019
13020.000,-6989.223577,-196.327163,2355.655964
13080.000,-6862.170171,-442.541254,2674.263146
13140.000,-6712.888976,-688.402763,2983.308370
13200.000,-6541.904722,-933.231521,3281.686628
13260.000,-6349.813301,-1176.346082,3568.331056
13320.000,-6137.279642,-1417.065524,3842.216741
13380.000,-5905.035360,-1654.711268,4102.364393
13440.000,-5653.876182,-1888.608919,4347.843840
13500.000,-5384.659167,-2118.090106,4577.777359
13560.000,-5098.299714,-2342.494330,4791.342811
13620.000,-4795.768387,-2561.170813,4987.776582
13680.000,-4478.087559,-2773.480338,5166.376315
13740.000,-4146.327883,-2978.797079,5326.503416
13800.000,-3801.604617,-3176.510419,5467.585343
13860.000,-3445.073792,-3366.026742,5589.117652
13920.000,-3077.928269,-3546.771200,5690.665798
13980.000,-2701.393661,-3718.189452,5771.866689
14040.000,-2316.724171,-3879.749364,5832.429989
14100.000,-1925.198331,-4030.942666,5872.139150
14160.000,-1528.114677,-4171.286563,5890.852191
14220.000,-1126.787359,-4300.325298,5888.502201
14280.000,-722.541718,-4417.631650,5865.097583
14340.000,-316.709827,-4522.808377,5820.722022
14400.000,89.373970,-4615.489587,5755.534185
14460.000,494.377524,-4695.342040,5669.767154
14520.000,896.975322,-4762.066372,5563.727593
14580.000,1295.852899,-4815.398236,5437.794652
14640.000,1689.711194,-4855.109363,5292.418610
14700.000,2077.270850,-4881.008522,5128.119267
14760.000,2457.276429,-4892.942401,4945.484082
14820.000,2828.500542,-4890.796375,4745.166077
14880.000,3189.747866,-4874.495182,4527.881498
14940.000,3539.859043,-4844.003494,4294.407258
15000.000,3877.714451,-4799.326372,4045.578154
15060.000,4202.237826,-4740.509618,3782.283887
15120.000,4512.399727,-4667.640010,3505.465880
15180.000,4807.220833,-4580.845423,3216.113908
15240.000,5085.775066,-4480.294829,2915.262563
15300.000,5347.192520,-4366.198183,2603.987554
15360.000,5590.662190,-4238.806178,2283.401860
15420.000,5815.434502,-4098.409896,1954.651751
15480.000,6020.823623,-3945.340314,1618.912689
15540.000,6206.209548,-3779.967709,1277.385125
15600.000,6371.039959,-3602.700928,931.290209
15660.000,6514.831859,-3413.986536,581.865418
15720.000,6637.172953,-3214.307855,230.360139
15780.000,6737.722798,-3004.183865,-121.968803
15840.000,6816.213703,-2784.168007,-473.861641
15900.000,6872.451381,-2554.846854,-824.060163
15960.000,6906.315357,-2316.838680,-1171.312218
16020.000,6917.759118,-2070.791911,-1514.376189
16080.000,6906.810023,-1817.383474,-1852.025433
16140.000,6873.568960,-1557.317045,-2183.052670
16200.000,6818.209761,-1291.321184,-2506.274296
16260.000,6740.978368,-1020.147396,-2820.534616
16320.000,6642.191771,-744.568085,-3124.709976
16380.000,6522.236700,-465.374432,-3417.712782
16440.000,6381.568095,-183.374188,-3698.495390
16500.000,6220.707354,100.610599,-3966.053846
16560.000,6040.240361,385.745932,-4219.431483
16620.000,5840.815308,671.188269,-4457.722337
16680.000,5623.140316,956.086982,-4680.074386
16740.000,5387.980865,1239.586866,-4885.692600
16800.000,5136.157046,1520.830681,-5073.841782
16860.000,4868.540632,1798.961737,-5243.849194
16920.000,4586.052002,2073.126490,-5395.106967
16980.000,4289.656899,2342.477168,-5527.074271
17040.000,3980.363066,2606.174397,-5639.279251
17100.000,3659.216743,2863.389830,-5731.320712
17160.000,3327.299060,3113.308768,-5802.869555
17220.000,2985.722319,3355.132768,-5853.669954
17280.000,2635.626199,3588.082220,-5883.540271
17340.000,2278.173877,3811.398896,-5892.373701
17400.000,1914.548095,4024.348458,-5880.138661
17460.000,1545.947175,4226.222910,-5846.878897
17520.000,1173.580998,4416.342999,-5792.713332
17580.000,798.666970,4594.060545,-5717.835637
17640.000,422.425977,4758.760697,-5622.513541
17700.000,46.078346,4909.864106,-5507.087873
17760.000,-329.160172,5046.829011,-5371.971342
17820.000,-702.082383,5169.153220,-5217.647066
17880.000,-1071.493584,5276.375991,-5044.666837
17940.000,-1436.215440,5368.079795,-4853.649155
18000.000,-1795.089781,5443.891967,-4645.277013
18060.000,-2146.982322,5503.486221,-4420.295455
18120.000,-2490.786278,5546.584042,-4179.508915
18180.000,-2825.425871,5572.955930,-3923.778337
18240.000,-3149.859721,5582.422510,-3654.018097
18300.000,-3463.084097,5574.855484,-3371.192736
18360.000,-3764.136037,5550.178436,-3076.313511
18420.000,-4052.096306,5508.367478,-2770.434776
18480.000,-4326.092202,5449.451731,-2454.650217
18540.000,-4585.300187,5373.513647,-2130.088935
18600.000,-4828.948345,5280.689161,-1797.911416
18660.000,-5056.318654,5171.167670,-1459.305376
18720.000,-5266.749069,5045.191852,-1115.481519
18780.000,-5459.635402,4903.057297,-767.669203
18840.000,-5634.433013,4745.111985,-417.112049
18900.000,-5790.658280,4571.755573,-65.063489
18960.000,-5927.889869,4383.438522,287.217708
19020.000,-6045.769789,4180.661051,638.471945
19080.000,-6144.004228,3963.971920,987.443293
19140.000,-6222.364176,3733.967049,1332.883990
19200.000,-6280.685830,3491.287975,1673.558896
19260.000,-6318.870780,3236.620145,2008.249909
19320.000,-6336.885980,2970.691059,2335.760327
19380.000,-6334.763501,2694.268257,2654.919120
19440.000,-6312.600076,2408.157167,2964.585119
19500.000,-6270.556427,2113.198803,3263.651100
19560.000,-6208.856393,1810.267344,3551.047737
19620.000,-6127.785850,1500.267570,3825.747428
19680.000,-6027.691438,1184.132194,4086.767973
19740.000,-5908.979092,862.819073,4333.176079
19800.000,-5772.112389,537.308318,4564.090702
19860.000,-5617.610717,208.599312,4778.686195
19920.000,-5446.047271,-122.292363,4976.195263
19980.000,-5258.046885,-454.338068,5155.911701
20040.000,-5054.283710,-786.499319,5317.192924
20100.000,-4835.478742,-1117.731057,5459.462264
20160.000,-4602.397216,-1446.984961,5582.211030
20220.000,-4355.845871,-1773.212797,5685.000327
20280.000,-4096.670097,-2095.369789,5767.462627
20340.000,-3825.750972,-2412.418011,5829.303083
20400.000,-3544.002208,-2723.329770,5870.300580
20460.000,-3252.367004,-3027.090992,5890.308531
20520.000,-2951.814829,-3322.704576,5889.255395
20580.000,-2643.338138,-3609.193725,5867.144939
20640.000,-2327.949039,-3885.605233,5824.056219
20700.000,-2006.675913,-4151.012711,5760.143301
20760.000,-1680.560010,-4404.519758,5675.634708
20820.000,-1350.652028,-4645.263045,5570.832607
20880.000,-1018.008675,-4872.415321,5446.111720
20940.000,-683.689250,-5085.188312,5301.917995
21000.000,-348.752229,-5282.835523,5138.767003
21060.000,-14.251884,-5464.654907,4957.242098
21120.000,318.765065,-5629.991421,4757.992331
21180.000,649.262740,-5778.239430,4541.730130
21240.000,976.219350,-5908.844975,4309.228751
21300.000,1298.630353,-6021.307882,4061.319513
21360.000,1615.511545,-6115.183702,3798.888829
21420.000,1925.902060,-6190.085489,3522.875032
21480.000,2228.867273,-6245.685394,3234.265023
21540.000,2523.501593,-6281.716073,2934.090741
21600.000,2808.931147,-6297.971911,2623.425473
21660.000,3084.316329,-6294.310038,2303.380020
21720.000,3348.854239,-6270.651157,1975.098719
21780.000,3601.780963,-6226.980155,1639.755356
21840.000,3842.373729,-6163.346518,1298.548967
21900.000,4069.952899,-6079.864518,952.699552
21960.000,4283.883817,-5976.713204,603.443714
22020.000,4483.578493,-5854.136166,252.030233
22080.000,4668.497125,-5712.441091,-100.284395
22140.000,4838.149458,-5551.999098,-452.240450
22200.000,4992.095966,-5373.243862,-802.579498
22260.000,5129.948872,-5176.670525,-1150.048884
22320.000,5251.372983,-4962.834398,-1493.406214
22380.000,5356.086365,-4732.349450,-1831.423797
22440.000,5443.860828,-4485.886601,-2162.893035
22500.000,5514.522244,-4224.171813,-2486.628743
22560.000,5567.950693,-3947.983982,-2801.473388
22620.000,5604.080426,-3658.152655,-3106.301229
22680.000,5622.899667,-3355.555548,-3400.022337
22740.000,5624.450236,-3041.115911,-3681.586499
22800.000,5608.827015,-2715.799707,-3949.986969
22860.000,5576.177245,-2380.612648,-4204.264067
22920.000,5526.699661,-2036.597076,-4443.508614
22980.000,5460.643481,-1684.828708,-4666.865178
23040.000,5378.307238,-1326.413250,-4873.535137
23100.000,5280.037468,-962.482896,-5062.779534
23160.000,5166.227259,-594.192719,-5233.921714
23220.000,5037.314671,-222.716971,-5386.349751
23280.000,4893.781021,150.754708,-5519.518632
23340.000,4736.149055,525.021142,-5632.952203
23400.000,4564.981002,898.873534,-5726.244879
23460.000,4380.876530,1271.099425,-5799.063086
23520.000,4184.470593,1640.486686,-5851.146459
23580.000,3976.431196,2005.827523,-5882.308772
23640.000,3757.457077,2365.922491,-5892.438602
23700.000,3528.275311,2719.584500,-5881.499729
23760.000,3289.638854,3065.642796,-5849.531267
23820.000,3042.324026,3402.946906,-5796.647520
23880.000,2787.127945,3730.370534,-5723.037575
23940.000,2524.865927,4046.815394,-5628.964630
24000.000,2256.368846,4351.214968,-5514.765047
24060.000,1982.480482,4642.538170,-5380.847151
24120.000,1704.054845,4919.792913,-5227.689773
24180.000,1421.953497,5182.029557,-5055.840535
24240.000,1137.042885,5428.344229,-4865.913891
24300.000,850.191670,5657.882011,-4658.588935
24360.000,562.268089,5869.839968,-4434.606965
24420.000,274.137340,6063.470019,-4194.768842
24480.000,-13.341002,6238.081638,-3939.932117
24540.000,-299.315517,6393.044367,-3671.007972
24600.000,-582.945431,6527.790144,-3388.957959
24660.000,-863.403042,6641.815427,-3094.790560
24720.000,-1139.876086,6734.683108,-2789.557587
24780.000,-1411.570029,6806.024219,-2474.350413
24840.000,-1677.710287,6855.539407,-2150.296079
24900.000,-1937.544356,6883.000183,-1818.553256
24960.000,-2190.343861,6888.249942,-1480.308107
25020.000,-2435.406503,6871.204743,-1136.770043
25080.000,-2672.057916,6831.853840,-789.167403
25140.000,-2899.653413,6770.259981,-438.743056
25200.000,-3117.579633,6686.559449,-86.749961
25260.000,-3325.256070,6580.961867,265.553312
25320.000,-3522.136492,6453.749745,616.907087
25380.000,-3707.710241,6305.277785,966.055080
25440.000,-3881.503420,6135.971938,1311.748896
25500.000,-4043.079946,5946.328224,1652.752490
